wavenumber(cm-1),absorbance
100.2819,0.9239474666666667
100.764,0.8933577666666667
101.2462,0.8634100666666668
101.7283,0.8380511166666667
102.2104,0.8190613333333333
102.6925,0.80647525
103.1747,0.7996408833333333
103.6568,0.7981379666666667
104.1389,0.8021954499999998
104.621,0.8125406333333335
105.1032,0.8299614499999999
105.5853,0.8548358333333334
106.0674,0.88684465
106.5495,0.9249398333333332
107.0317,0.9675156
107.5138,1.0124856166666667
107.9959,1.0569628333333334
108.478,1.0966608833333333
108.9602,1.1260433333333335
109.4423,1.140395
109.9244,1.1383011666666667
110.4065,1.1215135
110.8887,1.0937481666666666
111.3708,1.0609474666666667
111.8529,1.0307674666666669
112.335,1.0102511833333334
112.8172,1.0041057
113.2993,1.0144841666666669
113.7814,1.0412931666666665
114.2635,1.0822304999999999
114.7457,1.1324418333333333
115.2278,1.1840184999999999
115.7099,1.2262573333333335
116.192,1.2484761666666666
116.6741,1.2453906666666668
117.1563,1.2198873499999998
117.6384,1.1802580166666665
118.1205,1.1354026
118.6026,1.0918294166666669
119.0848,1.0533436
119.5669,1.0219839000000002
120.049,0.9987722666666666
120.5311,0.9840080333333333
121.0133,0.9773089666666666
121.4954,0.9776263333333333
121.9775,0.9833849
122.4596,0.9928069833333334
122.9418,1.0043407999999998
123.4239,1.0169718333333335
123.906,1.0302196833333335
124.3881,1.0435985333333333
124.8703,1.056096
125.3524,1.0657995
125.8345,1.0701791666666667
126.3166,1.0670955
126.7988,1.0560409999999998
127.2809,1.0386633333333333
127.763,1.0180591333333333
128.2451,0.99742145
128.7272,0.9789782833333334
129.2094,0.9636673000000001
129.6915,0.9513986833333336
130.1736,0.9415983666666666
130.6557,0.9337149166666667
131.1379,0.9275043333333333
131.62,0.9230077166666669
132.1021,0.9202936333333334
132.5842,0.9191255999999998
133.0664,0.9187566333333335
133.5485,0.9180193166666668
134.0306,0.9157666999999999
134.5127,0.9114447500000001
134.9949,0.9054415833333334
135.477,0.8989581999999999
135.9591,0.8935050999999999
136.4412,0.8903233166666666
136.9234,0.8899786666666666
137.4055,0.89222035
137.8876,0.8961191666666667
138.3697,0.9004373500000001
138.8519,0.9041206166666668
139.334,0.9066854499999999
139.8161,0.9082912833333334
140.2982,0.9094547000000001
140.7804,0.9105962999999999
141.2625,0.9116884500000001
141.7446,0.9121980833333332
142.2267,0.9113325333333334
142.7089,0.9084579833333334
143.191,0.9034334166666668
143.6731,0.8966800500000001
144.1552,0.8889486166666667
144.6374,0.8809525166666666
145.1195,0.8730790333333333
145.6016,0.8653387666666666
146.0837,0.8575478166666666
146.5659,0.8496449999999999
147.048,0.8419429166666667
147.5301,0.8351815666666665
148.0122,0.8303507333333333
148.4944,0.8283695166666667
148.9765,0.8297318166666666
149.4586,0.8342356
149.9407,0.8408863166666666
150.4229,0.8480750166666667
150.905,0.8540418833333333
151.3871,0.8574827833333334
151.8692,0.8579964000000001
152.3513,0.8561214500000002
152.8335,0.8529659166666667
153.3156,0.84967975
153.7977,0.8470303499999999
154.2798,0.8452253166666667
154.762,0.84395655
155.2441,0.8426040166666667
155.7262,0.8404806166666666
156.2083,0.8370622166666667
156.6905,0.8321399333333334
157.1726,0.8258818833333333
157.6547,0.81878365
158.1368,0.8115432333333334
158.619,0.8048890000000001
159.1011,0.7994229
159.5832,0.7955106500000001
160.0653,0.7932222166666668
160.5475,0.7923179333333333
161.0296,0.7922899999999999
161.5117,0.7924626833333334
161.9938,0.7921649666666667
162.476,0.79092745
162.9581,0.7886364333333334
163.4402,0.7855655666666667
163.9223,0.7822577166666665
164.4044,0.7793046666666666
164.8866,0.7771231833333333
165.3687,0.7758017333333332
165.8508,0.7750738333333334
166.3329,0.7744186166666666
166.8151,0.77325585
167.2972,0.77116035
167.7793,0.7680034666666667
168.2614,0.7639621500000001
168.7436,0.7594096333333334
169.2257,0.7547485833333333
169.7078,0.7502770666666666
170.1899,0.7461303333333333
170.6721,0.7423169666666666
171.1542,0.7388099833333333
171.6363,0.7356387833333334
172.1184,0.7329255833333334
172.6006,0.7308527333333333
173.0827,0.7295755
173.5648,0.7291310333333333
174.0469,0.7293824666666667
174.5291,0.7300269333333333
175.0112,0.7306685166666665
175.4933,0.7309335333333333
175.9754,0.7305795
176.4576,0.7295560833333333
176.9397,0.72799165
177.4218,0.7261220166666668
177.9039,0.7241949333333332
178.386,0.7223966666666666
178.8682,0.7208201166666667
179.3503,0.71947595
179.8324,0.7183205500000001
180.3145,0.7172858500000001
180.7967,0.7162908166666667
181.2788,0.7152446499999999
181.7609,0.71404435
182.243,0.7125847
182.7252,0.71078015
183.2073,0.7085905
183.6894,0.7060388166666667
184.1715,0.7032103833333334
184.6537,0.7002301666666666
185.1358,0.6972305
185.6179,0.6943184166666666
186.1,0.6915608
186.5822,0.6889872833333334
187.0643,0.6866068333333333
187.5464,0.6844242499999998
188.0285,0.6824492833333333
188.5107,0.6806875666666666
188.9928,0.6791268833333334
189.4749,0.6777191166666667
189.957,0.6763769833333333
190.4392,0.6749864166666667
190.9213,0.6734344999999999
191.4034,0.6716367166666667
191.8855,0.6695577
192.3677,0.6672110333333333
192.8498,0.6646452333333334
193.3319,0.6619178499999999
193.814,0.6590768666666666
194.2962,0.6561546833333333
194.7783,0.6531764333333334
195.2604,0.6501742666666667
195.7425,0.6471991500000001
196.2247,0.6443182499999999
196.7068,0.6416029666666666
197.1889,0.6391079666666667
197.671,0.6368566
198.1532,0.63483615
198.6353,0.6330071166666666
199.1174,0.6313188
199.5995,0.6297259833333334
200.0816,0.6281973166666667
200.5638,0.6267167166666666
201.0459,0.6252784
201.528,0.6238830999999999
202.0101,0.62253755
202.4923,0.6212575
202.9744,0.620066
203.4565,0.6189848666666666
203.9386,0.61801625
204.4208,0.6171279666666667
204.9029,0.6162484333333335
205.385,0.615281
205.8671,0.6141362333333333
206.3493,0.6127745666666667
206.8314,0.6112390833333333
207.3135,0.6096645166666667
207.7956,0.6082431333333332
208.2778,0.6071573333333333
208.7599,0.6064966666666666
209.242,0.6061993666666666
209.7241,0.6060452000000001
210.2063,0.6057114833333334
210.6884,0.6048724666666665
211.1705,0.6033112166666666
211.6526,0.6009948333333334
212.1348,0.5980848666666666
212.6169,0.5948757499999999
213.099,0.5916904333333334
213.5811,0.58877705
214.0633,0.58624475
214.5454,0.5840579166666666
215.0275,0.5820848499999999
215.5096,0.5801742833333333
215.9918,0.5782278499999999
216.4739,0.5762322666666666
216.956,0.5742505333333333
217.4381,0.5723776333333334
217.9203,0.5706895166666667
218.4024,0.5692065166666667
218.8845,0.5678885
219.3666,0.5666558333333334
219.8488,0.5654262333333333
220.3309,0.5641451666666667
220.813,0.5628006833333333
221.2951,0.5614166666666667
221.7773,0.5600352166666667
222.2594,0.5586963333333334
222.7415,0.5574283333333333
223.2236,0.5562467
223.7057,0.5551625666666666
224.1879,0.5541865833333334
224.67,0.5533289666666666
225.1521,0.5525914
225.6342,0.5519586833333333
226.1164,0.5513918333333333
226.5985,0.5508348166666667
227.0806,0.5502278500000001
227.5627,0.5495275333333334
228.0449,0.5487211333333334
228.527,0.5478282499999999
229.0091,0.5468899166666666
229.4912,0.5459509833333334
229.9734,0.5450419333333333
230.4555,0.5441720999999999
230.9376,0.5433301333333334
231.4197,0.5424930166666666
231.9019,0.5416337999999999
232.384,0.5407281166666666
232.8661,0.5397545499999999
233.3482,0.5386942333333334
233.8304,0.5375314166666666
234.3125,0.5362579
234.7946,0.5348805666666666
235.2767,0.5334280666666666
235.7589,0.5319492666666666
236.241,0.5305040333333332
236.7231,0.5291461166666667
237.2052,0.5279063333333333
237.6873,0.5267819
238.1695,0.5257385666666666
238.6516,0.5247254666666666
239.1337,0.5236974166666667
239.6158,0.5226337500000001
240.098,0.5215477000000001
240.5801,0.5204800166666667
241.0622,0.5194824666666668
241.5443,0.51859555
242.0265,0.5178329
242.5086,0.51717545
242.9907,0.5165803000000001
243.4728,0.51599425
243.955,0.5153717333333333
244.4371,0.5146862833333334
244.9192,0.5139354166666666
245.4013,0.5131369
245.8835,0.5123217666666666
246.3656,0.5115256166666666
246.8477,0.5107837833333334
247.3298,0.5101265666666667
247.812,0.5095749333333334
248.2941,0.5091382166666666
248.7762,0.5088110833333334
249.2583,0.5085724666666667
249.7404,0.5083888833333333
250.2226,0.50822025
250.7047,0.50802885
251.1868,0.5077864499999999
251.6689,0.5074791333333334
252.1511,0.5071072499999999
252.6332,0.5066821666666667
253.1153,0.5062200666666667
253.5974,0.5057358
254.0796,0.5052385500000001
254.5617,0.50473085
255.0438,0.5042090166666666
255.5259,0.5036662666666666
256.0081,0.50309455
256.4902,0.5024865
256.9723,0.5018357
257.4544,0.5011382000000001
257.9366,0.5003932333333333
258.4187,0.49960535
258.9008,0.4987835
259.3829,0.49793969999999993
259.8651,0.4970852166666668
260.3472,0.49622845000000004
260.8293,0.49537298333333335
261.3114,0.4945204333333333
261.7935,0.4936738666666667
262.2757,0.49284313333333335
262.7578,0.4920453833333333
263.2399,0.4913029666666666
263.722,0.49063698333333333
264.2042,0.49005989999999994
264.6863,0.4895703166666667
265.1684,0.4891529833333334
265.6505,0.48878364999999996
266.1327,0.4884391833333334
266.6148,0.4881050333333334
267.0969,0.4877809
267.579,0.48747985
268.0612,0.48722233333333337
268.5433,0.4870274833333334
269.0254,0.48690645
269.5075,0.4868590499999999
269.9897,0.4868758333333334
270.4718,0.48694258333333335
270.9539,0.48704509999999995
271.436,0.48717218333333334
271.9182,0.4873169833333333
272.4003,0.4874746333333333
272.8824,0.48764199999999996
273.3645,0.48781645
273.8467,0.48799789999999993
274.3288,0.4881887999999999
274.8109,0.4883944500000001
275.293,0.48861938333333327
275.7752,0.4888626333333333
276.2573,0.4891134
276.7394,0.48934896666666666
277.2215,0.48953745
277.7037,0.48964596666666677
278.1858,0.4896491166666666
278.6679,0.48953935000000004
279.15,0.4893280666666667
279.6322,0.48904276666666663
280.1143,0.48871788333333327
280.5964,0.4883856166666667
281.0785,0.4880677
281.5607,0.48777326666666676
282.0428,0.4874996333333333
282.5249,0.48723718333333327
283.007,0.4869733666666667
283.4892,0.4866974833333333
283.9713,0.48640208333333335
284.4534,0.48608473333333335
284.9355,0.48574865000000006
285.4177,0.48540348333333333
285.8998,0.48506473333333333
286.3819,0.48475286666666667
286.864,0.4844893666666667
287.3462,0.48429279999999997
287.8283,0.48417375
288.3104,0.48413343333333336
288.7925,0.48416508333333325
289.2747,0.48425918333333334
289.7568,0.4844092
290.2389,0.48461538333333337
290.721,0.4848850333333334
291.2032,0.48522798333333333
291.6853,0.4856491333333333
292.1674,0.48614235
292.6495,0.4866874666666667
293.1317,0.4872538333333334
293.6138,0.48780759999999995
294.0959,0.4883217166666667
294.578,0.48878376666666673
295.0602,0.48919966666666664
295.5423,0.4895894333333333
296.0244,0.4899797666666667
296.5065,0.4903940833333333
296.9886,0.49084500000000003
297.4708,0.49133103333333333
297.9529,0.4918393833333334
298.435,0.4923507333333333
298.9171,0.49284695000000006
299.3993,0.4933151333333334
299.8814,0.49374956666666664
300.3635,0.4941483
300.8456,0.49451013333333343
301.3278,0.49482975000000007
301.8099,0.49509716666666664
302.292,0.49529953333333326
302.7741,0.4954277166666666
303.2563,0.4954811666666667
303.7384,0.4954733
304.2205,0.49543015
304.7026,0.4953855
305.1848,0.4953716833333333
305.6669,0.4954104
306.149,0.49550591666666666
306.6311,0.4956439166666667
307.1133,0.49579485
307.5954,0.495924
308.0775,0.4960020833333334
308.5596,0.49601680000000004
309.0417,0.49597660000000005
309.5239,0.49591061666666664
310.006,0.49585865
310.4881,0.49586081666666665
310.9702,0.4959462666666667
311.4524,0.4961283166666666
311.9345,0.4964032833333334
312.4166,0.4967558
312.8987,0.4971652333333334
313.3809,0.4976122166666667
313.863,0.49808063333333336
314.3451,0.4985591166666667
314.8272,0.499039
315.3094,0.4995140333333334
315.7915,0.49998093333333343
316.2736,0.5004413333333334
316.7557,0.5009030833333333
317.2379,0.5013787333333334
317.72,0.5018823499999999
318.2021,0.5024248333333333
318.6842,0.5030088166666666
319.1664,0.503629
319.6485,0.5042735833333334
320.1306,0.5049308833333334
320.6127,0.5055937
321.0948,0.5062616999999999
321.577,0.5069386499999999
322.0591,0.5076268166666668
322.5412,0.5083198833333332
323.0233,0.5090000333333332
323.5055,0.5096397
323.9876,0.5102095833333333
324.4697,0.5106874333333332
324.9518,0.5110662333333335
325.434,0.5113562833333334
325.9161,0.5115812
326.3982,0.5117694166666668
326.8803,0.51194515
327.3625,0.5121218
327.8446,0.5123013
328.3267,0.5124764333333333
328.8088,0.51263695
329.291,0.5127734833333334
329.7731,0.5128808
330.2552,0.5129569333333333
330.7373,0.51300225
331.2195,0.5130191333333334
331.7016,0.51301255
332.1837,0.5129917333333333
332.6658,0.5129708666666667
333.1479,0.5129674166666667
333.6301,0.5129982166666668
334.1122,0.5130745833333333
334.5943,0.5131998666666666
335.0764,0.5133697333333332
335.5586,0.5135776833333333
336.0407,0.51382095
336.5228,0.5141050666666667
337.0049,0.5144434999999999
337.4871,0.5148523166666666
337.9692,0.5153400333333333
338.4513,0.51590075
338.9334,0.5165106666666667
339.4156,0.5171332500000001
339.8977,0.5177298166666667
340.3798,0.5182744333333333
340.8619,0.5187617166666666
341.3441,0.5192093999999999
341.8262,0.5196506333333333
342.3083,0.5201213333333333
342.7904,0.5206458833333333
343.2726,0.5212284833333334
343.7547,0.5218509833333332
344.2368,0.5224798
344.7189,0.5230755500000001
345.2011,0.5236043666666667
345.6832,0.5240448500000001
346.1653,0.5243906666666667
346.6474,0.5246478333333334
347.1295,0.5248311166666667
347.6117,0.5249584500000001
348.0938,0.5250481333333333
348.5759,0.52511575
349.058,0.5251734333333333
349.5402,0.5252281666666666
350.0223,0.52528145
350.5044,0.5253296333333334
350.9865,0.5253663666666667
351.4687,0.5253847333333335
351.9508,0.5253804666666667
352.4329,0.5253533166666667
352.915,0.5253067333333333
353.3972,0.5252449499999999
353.8793,0.5251715
354.3614,0.5250875166666666
354.8435,0.5249935833333333
355.3257,0.5248918166666666
355.8078,0.5247894666666667
356.2899,0.5246995166666667
356.7721,0.5246382666666666
357.2542,0.5246208833333333
357.7363,0.5246565833333334
358.2184,0.5247458333333334
358.7006,0.5248827
359.1827,0.5250590333333333
359.6648,0.5252712333333333
360.1469,0.5255234333333333
360.6291,0.5258263833333334
361.1112,0.5261905666666666
361.5933,0.5266183833333333
362.0754,0.5270973999999998
362.5576,0.5275998166666667
363.0397,0.5280887
363.5218,0.5285294
364.0039,0.5289000833333333
364.4861,0.5291990666666667
364.9682,0.5294431833333334
365.4503,0.5296605333333334
365.9324,0.5298787666666667
366.4146,0.5301168500000001
366.8967,0.5303808666666666
367.3788,0.5306667666666666
367.8609,0.5309668666666667
368.343,0.5312757499999999
368.8252,0.5315924333333334
369.3073,0.5319182166666667
369.7894,0.5322517333333333
370.2715,0.5325842999999999
370.7537,0.532899
371.2358,0.5331760166666667
371.7179,0.5333982833333334
372.2,0.5335588833333333
372.6822,0.5336640333333332
373.1643,0.5337307166666667
373.6464,0.53377945
374.1285,0.5338264833333334
374.6107,0.5338773833333333
375.0928,0.5339262333333333
375.5749,0.5339592666666667
376.057,0.5339625
376.5392,0.5339279499999999
377.0213,0.5338571666666666
377.5034,0.5337596166666668
377.9855,0.5336490500000001
378.4677,0.5335374333333333
378.9498,0.5334326
379.4319,0.5333378333333333
379.914,0.5332548166666667
380.3961,0.5331863666666666
380.8783,0.5331389999999999
381.3604,0.5331206
381.8425,0.5331381000000001
382.3246,0.5331929833333333
382.8068,0.5332794999999999
383.2889,0.5333853333333334
383.771,0.5334961666666667
384.2531,0.5336003666666667
384.7353,0.5336940666666666
385.2174,0.5337818
385.6995,0.5338757166666667
386.1816,0.53399005
386.6638,0.5341364666666667
387.1459,0.5343194833333333
387.628,0.5345353666666667
388.1101,0.5347731666666667
388.5923,0.53501785
389.0744,0.5352544666666668
389.5565,0.5354710166666666
390.0386,0.5356605666666667
390.5208,0.5358213833333333
391.0029,0.5359561166666668
391.485,0.5360706999999999
391.9671,0.5361726166666667
392.4492,0.5362692333333333
392.9314,0.5363666833333333
393.4135,0.5364689333333333
393.8956,0.5365765166666666
394.3777,0.5366866
394.8599,0.5367929166666666
395.342,0.5368873500000001
395.8241,0.5369605
396.3062,0.5370035333333334
396.7884,0.5370087166666667
397.2705,0.5369704
397.7526,0.5368847499999999
398.2347,0.5367503166666666
398.7169,0.5365675333333333
399.199,0.5363402666666667
399.6811,0.5360755833333334
400.1632,0.5357852166666667
400.6454,0.53548395
401.1275,0.5351897499999999
401.6096,0.5349195
402.0917,0.5346875166666667
402.5739,0.5345010166666667
403.056,0.5343594
403.5381,0.5342543166666668
404.0202,0.5341725333333334
404.5023,0.5340993333333333
404.9845,0.5340234166666668
405.4666,0.5339385833333333
405.9487,0.5338452666666667
406.4308,0.53374795
406.913,0.5336530833333334
407.3951,0.5335655
407.8772,0.5334875499999999
408.3593,0.5334183333333334
408.8415,0.53335665
409.3236,0.5333026666666666
409.8057,0.5332603666666665
410.2878,0.5332372166666667
410.77,0.5332431666666667
411.2521,0.5332867666666666
411.7342,0.53337285
412.2163,0.5334997833333333
412.6985,0.5336601
413.1806,0.5338407833333333
413.6627,0.5340271666666666
414.1448,0.5342049833333333
414.627,0.5343628166666666
415.1091,0.5344927666666667
415.5912,0.5345905333333333
416.0733,0.5346540833333333
416.5555,0.5346832333333333
417.0376,0.5346778666666667
417.5197,0.5346378666666666
418.0018,0.53456275
418.484,0.5344516833333333
418.9661,0.534304
419.4482,0.5341204
419.9303,0.5339038833333333
420.4125,0.53366065
420.8946,0.5334004833333333
421.3767,0.5331355
421.8588,0.5328779
422.341,0.5326367833333334
422.8231,0.5324154666666667
423.3052,0.5322105666666667
423.7873,0.5320122666666666
424.2695,0.5318089500000001
424.7516,0.5315902833333334
425.2337,0.53135215
425.7158,0.5310972166666668
426.198,0.5308349666666666
426.6801,0.5305771333333333
427.1622,0.5303338333333333
427.6443,0.5301096
428.1265,0.5299029333333333
428.6086,0.52970725
429.0907,0.5295150333333334
429.5728,0.5293213833333333
430.055,0.5291273666666666
430.5371,0.5289391500000001
431.0192,0.5287671500000001
431.5013,0.5286216833333334
431.9835,0.5285108333333334
432.4656,0.52843755
432.9477,0.5284007833333333
433.4298,0.5283954333333333
433.912,0.5284149666666668
434.3941,0.5284521166666667
434.8762,0.52849945
435.3583,0.52854915
435.8405,0.5285930333333333
436.3226,0.5286222500000001
436.8047,0.528629
437.2868,0.5286076333333333
437.769,0.5285566999999999
438.2511,0.5284792
438.7332,0.5283824666666667
439.2153,0.5282759500000002
439.6974,0.5281691999999999
440.1796,0.528069
440.6617,0.5279777333333333
441.1438,0.5278929166666666
441.6259,0.5278078833333333
442.1081,0.52771335
442.5902,0.5276003666666667
443.0723,0.5274612833333333
443.5544,0.5272927833333334
444.0366,0.5270955666666666
444.5187,0.5268742833333334
445.0008,0.5266365666666667
445.4829,0.5263912666666667
445.9651,0.52614655
446.4472,0.5259085833333333
446.9293,0.5256801000000001
447.4114,0.5254601666666666
447.8936,0.525244
448.3757,0.5250242000000002
448.8578,0.52479225
449.3399,0.5245407000000001
449.8221,0.5242657000000001
450.3042,0.5239693500000001
450.7863,0.5236604166666666
451.2684,0.52335435
451.7505,0.5230701166666667
452.2327,0.5228263666666667
452.7148,0.522637
